# total lensed [l(l+1)/2pi] C_l's (units: [microK]^2)
# for l=2 to 2500, i.e. number of multipoles equal to 2499
#
# -> if you don't want to see such a header, set 'headers' to 'no' in input file
# -> for CMB lensing (d), these are C_l^dd for the deflection field.
#    Remember the conversion factors:
#    C_l^dd (deflection) = l(l+1) C_l^phi-phi
#    C_l^gg (shear/convergence) = 1/4 (l(l+1))^2 C_l^phi-phi
#
# 1:l     2:TT                     3:EE                     4:BB                     5:TE                     6:dd                     7:dT                     8:dE                 
    2       1.016867044703e+03       3.093541037654e-02       1.837801731103e-06       2.627498608163e+00       4.963189458483e-08       2.982748173788e-03      -1.228511848485e-05 
    3       9.631209982405e+02       3.973708813492e-02       3.676302324542e-06       2.946052254243e+00       6.084703228306e-08       2.984169912227e-03      -1.318991440907e-05 
    4       9.121931509245e+02       3.449017119326e-02       6.128709528946e-06       2.755127199892e+00       7.019792935544e-08       2.911624021532e-03      -1.118034577486e-05 
    5       8.740569676084e+02       2.309461337722e-02       9.195916494050e-06       2.347006319239e+00       7.831372157016e-08       2.812605499928e-03      -7.651413124310e-06 
    6       8.479639168950e+02       1.295248947866e-02       1.287900732412e-05       1.890639070993e+00       8.538494121647e-08       2.704178058242e-03      -3.771019583923e-06 
    7       8.310273122064e+02       6.999503803051e-03       1.717923697498e-05       1.484385076012e+00       9.159911316383e-08       2.594299140705e-03      -4.474008547774e-07 
    8       8.212514928229e+02       4.502540977357e-03       2.209800851534e-05       1.171501689337e+00       9.711126581577e-08       2.488019993994e-03       1.772640441461e-06 
    9       8.168506354003e+02       3.612908430802e-03       2.763684842477e-05       9.615916249442e-01       1.020299931650e-07       2.388945601262e-03       2.719717259643e-06 
   10       8.161072583010e+02       3.091134944341e-03       3.379738064854e-05       8.450981917647e-01       1.064290384405e-07       2.297659840411e-03       2.550251964235e-06 
   11       8.186413196320e+02       2.611543505153e-03       4.058130015166e-05       8.023850115257e-01       1.092330321190e-07       2.236063838721e-03       1.649487298911e-06 
   12       8.233091916458e+02       2.284787065994e-03       4.799034671106e-05       8.107375442371e-01       1.127776946383e-07       2.148848059082e-03       4.470736067821e-07 
   13       8.297523486318e+02       2.196324105331e-03       5.602627965592e-05       8.500493496161e-01       1.159497132627e-07       2.073973830146e-03      -6.364781429356e-07 
   14       8.376689586407e+02       2.290832811870e-03       6.469085421336e-05       9.051704123219e-01       1.187913436833e-07       1.997176158102e-03      -1.351520158113e-06 
   15       8.469293318373e+02       2.480328678176e-03       7.398580004147e-05       9.665461224324e-01       1.213380666764e-07       1.927617882402e-03      -1.588752033406e-06 
   16       8.569578624924e+02       2.743408862938e-03       8.391280243791e-05       1.028976602471e+00       1.236201685632e-07       1.861664203068e-03      -1.408363680217e-06 
   17       8.680037792591e+02       3.120520116288e-03       9.447348660324e-05       1.090885597472e+00       1.256637716926e-07       1.798246789706e-03      -9.750448499767e-07 
   18       8.795856090876e+02       3.653184397284e-03       1.056694038904e-04       1.154163084336e+00       1.274435967080e-07       1.738900705424e-03      -4.977656443560e-07 
   19       8.917889015749e+02       4.344649110746e-03       1.175020294627e-04       1.220338176875e+00       1.291231217520e-07       1.684903471965e-03      -1.208328517115e-07 
   20       9.045729152831e+02       5.180635141457e-03       1.299727420326e-04       1.290364821359e+00       1.305681828022e-07       1.632996941898e-03       3.015395508116e-08 
   21       9.179381953245e+02       6.156269242834e-03       1.430828422378e-04       1.364113753587e+00       1.318657080849e-07       1.583057401106e-03      -5.518896517252e-08 
   22       9.316763766682e+02       7.267608980564e-03       1.568335304244e-04       1.440499019134e+00       1.329894390679e-07       1.534037731177e-03      -3.087811632106e-07 
   23       9.458366794832e+02       8.516396430956e-03       1.712259354999e-04       1.516995743715e+00       1.340087300104e-07       1.487355993732e-03      -6.404222529421e-07 
   24       9.603907742597e+02       9.904664438354e-03       1.862610923292e-04       1.590316884530e+00       1.348763444205e-07       1.443811826531e-03      -9.313662598945e-07 
   25       9.753376036174e+02       1.143253636855e-02       2.019399828744e-04       1.658382485357e+00       1.356461196964e-07       1.403326201449e-03      -1.112980910949e-06 
   26       9.905718421248e+02       1.310125613611e-02       2.182635089306e-04       1.719486361947e+00       1.362962704824e-07       1.364363089322e-03      -1.142458701948e-06 
   27       1.006072519931e+03       1.492550493483e-02       2.352325316124e-04       1.772718067399e+00       1.368535850383e-07       1.326949213987e-03      -1.045194144968e-06 
   28       1.021778780646e+03       1.692410184579e-02       2.528478527456e-04       1.817638167917e+00       1.372826068537e-07       1.290992625811e-03      -8.836999085779e-07 
   29       1.037756641402e+03       1.910814958164e-02       2.711102790040e-04       1.854691279048e+00       1.376556553195e-07       1.257116805523e-03      -7.052616216068e-07 
   30       1.054026267831e+03       2.148636209880e-02       2.900205686233e-04       1.884882372158e+00       1.379927008816e-07       1.225413096523e-03      -5.660041055396e-07 
   31       1.070530270059e+03       2.406699062987e-02       3.095794312264e-04       1.909256721815e+00       1.382142933487e-07       1.195154555382e-03      -5.255510494141e-07 
   32       1.087292415529e+03       2.685685300669e-02       3.297876083286e-04       1.927505788411e+00       1.383646544367e-07       1.166257406680e-03      -5.805158209463e-07 
   33       1.104298610733e+03       2.986184001815e-02       3.506458216452e-04       1.938834369436e+00       1.384719484227e-07       1.138239372171e-03      -6.950984209874e-07 
   34       1.121482867015e+03       3.308745251030e-02       3.721547633808e-04       1.942318954893e+00       1.385004432336e-07       1.110186642404e-03      -8.221038416944e-07 
   35       1.138857674509e+03       3.654002584339e-02       3.943151355161e-04       1.936945089388e+00       1.384815535930e-07       1.082594303305e-03      -9.331619939352e-07 
   36       1.156416308933e+03       4.022586747435e-02       4.171276252929e-04       1.921563585659e+00       1.384218475756e-07       1.056252774445e-03      -1.000542436024e-06 
   37       1.174121214434e+03       4.415093866697e-02       4.405928915556e-04       1.895120011667e+00       1.382825668220e-07       1.031704529090e-03      -9.982380980250e-07 
   38       1.192004734801e+03       4.832097194457e-02       4.647115503568e-04       1.857514374428e+00       1.381015184031e-07       1.009111239860e-03      -9.360841445261e-07 
   39       1.210093203961e+03       5.274134485638e-02       4.894841856915e-04       1.809030087791e+00       1.379139517712e-07       9.882096501788e-04      -8.420803571786e-07 
   40       1.228374717503e+03       5.741701400455e-02       5.149113540184e-04       1.750116738275e+00       1.377067966475e-07       9.682424173058e-04      -7.557314946709e-07 
   41       1.246817525741e+03       6.235265258934e-02       5.409935628382e-04       1.681209718193e+00       1.374337084749e-07       9.482449414890e-04      -7.179477769606e-07 
   42       1.265442304968e+03       6.755318181713e-02       5.677311968128e-04       1.602094339668e+00       1.371169030618e-07       9.283016290731e-04      -7.307812171032e-07 
   43       1.284266487636e+03       7.302336702786e-02       5.951245684561e-04       1.512351640539e+00       1.367813740907e-07       9.087444568635e-04      -7.809316277790e-07 
   44       1.303281265018e+03       7.876765266626e-02       6.231739370132e-04       1.411527957115e+00       1.364198435266e-07       8.898063995188e-04      -8.490559340543e-07 
   45       1.322464703693e+03       8.479010857837e-02       6.518794804124e-04       1.299182612704e+00       1.360048549295e-07       8.716273747563e-04      -9.142329461889e-07 
   46       1.341831828974e+03       9.109428690917e-02       6.812412035121e-04       1.175055177732e+00       1.355602161785e-07       8.543343647130e-04      -9.717273960651e-07 
   47       1.361395141593e+03       9.768329560347e-02       7.112590006977e-04       1.038943021357e+00       1.351137212077e-07       8.379558715242e-04      -1.021746567493e-06 
   48       1.381148606425e+03       1.045598151433e-01       7.419326780290e-04       8.906547846567e-01       1.346731742253e-07       8.223731772420e-04      -1.064904027561e-06 
   49       1.401065985233e+03       1.117260805965e-01       7.732619506686e-04       7.300102503415e-01       1.342203236007e-07       8.072964186214e-04      -1.102275588415e-06 
   50       1.421116361057e+03       1.191838448898e-01       8.052464393929e-04       5.568255222962e-01       1.337227165224e-07       7.923745231004e-04      -1.135516118027e-06 
   51       1.441319547243e+03       1.269342985232e-01       8.378856649759e-04       3.708641239322e-01       1.331941661328e-07       7.776395471562e-04      -1.167123710659e-06 
   52       1.461702836613e+03       1.349780970327e-01       8.711790478358e-04       1.718724008236e-01       1.326545352911e-07       7.631972741345e-04      -1.200381807204e-06 
   53       1.482284286460e+03       1.433153594733e-01       9.051259062669e-04      -4.040775136360e-02       1.321107016876e-07       7.490986516546e-04      -1.239382430350e-06 
   54       1.503071860313e+03       1.519456495839e-01       9.397254538253e-04      -2.662397084622e-01       1.315529942891e-07       7.353304236879e-04      -1.289103941797e-06 
   55       1.524067639053e+03       1.608682650468e-01       9.749768574042e-04      -5.058478606540e-01       1.309634765278e-07       7.218505306900e-04      -1.353935888800e-06 
   56       1.545283645463e+03       1.700832325630e-01       1.010879434346e-03      -7.592700840205e-01       1.303554915266e-07       7.087334045388e-04      -1.432410081776e-06 
   57       1.566728447566e+03       1.795905269842e-01       1.047432499719e-03      -1.026470058839e+00       1.297463716728e-07       6.960608639703e-04      -1.520672412789e-06 
   58       1.588401787345e+03       1.893897781939e-01       1.084635309670e-03      -1.307378222964e+00       1.291449045207e-07       6.838759230001e-04      -1.613777438945e-06 
   59       1.610293920013e+03       1.994802642757e-01       1.122487061175e-03      -1.601890837098e+00       1.285491404384e-07       6.721768431740e-04      -1.705585723064e-06 
   60       1.632384953281e+03       2.098609046827e-01       1.160986891791e-03      -1.909869050074e+00       1.279440001028e-07       6.609109270603e-04      -1.788657530301e-06 
   61       1.654654118088e+03       2.205297585967e-01       1.200133993098e-03      -2.231163507149e+00       1.273092818014e-07       6.500051908763e-04      -1.855881256862e-06 
   62       1.677111507219e+03       2.314824038839e-01       1.239927981348e-03      -2.565696744144e+00       1.266543240056e-07       6.394857848881e-04      -1.906264494108e-06 
   63       1.699772320699e+03       2.427131805003e-01       1.280368609948e-03      -2.913397713035e+00       1.259939854945e-07       6.293869924722e-04      -1.940884012865e-06 
   64       1.722647224218e+03       2.542156311081e-01       1.321455666399e-03      -3.274177749103e+00       1.253382426387e-07       6.197140077258e-04      -1.961361519402e-06 
   65       1.745742003514e+03       2.659824785449e-01       1.363188975651e-03      -3.647930446667e+00       1.246909812980e-07       6.104392002902e-04      -1.969915372139e-06 
   66       1.769057218761e+03       2.780056032919e-01       1.405568403464e-03      -4.034531534825e+00       1.240486871626e-07       6.014982363818e-04      -1.969414035682e-06 
   67       1.792587858960e+03       2.902760209435e-01       1.448593859762e-03      -4.433838753189e+00       1.233990313001e-07       5.927860560304e-04      -1.963431272202e-06 
   68       1.816327936291e+03       3.027847430643e-01       1.492265362971e-03      -4.845698061165e+00       1.227269831821e-07       5.841925274227e-04      -1.955510825880e-06 
   69       1.840286122765e+03       3.155256126818e-01       1.536583240657e-03      -5.269964004571e+00       1.220397294779e-07       5.757317565212e-04      -1.946566694520e-06 
   70       1.864472675654e+03       3.284930055029e-01       1.581547975758e-03      -5.706483271560e+00       1.213489426458e-07       5.674443404645e-04      -1.936799604068e-06 
   71       1.888894562523e+03       3.416809974219e-01       1.627160154035e-03      -6.155088761263e+00       1.206633741843e-07       5.593594806345e-04      -1.926421440319e-06 
   72       1.913555241958e+03       3.550833645819e-01       1.673420468987e-03      -6.615599621506e+00       1.199881798623e-07       5.514934747439e-04      -1.915654789715e-06 
   73       1.938454444295e+03       3.686935834369e-01       1.720329726769e-03      -7.087821286531e+00       1.193241934222e-07       5.438481543398e-04      -1.904732442640e-06 
   74       1.963587952349e+03       3.825048308137e-01       1.767888851107e-03      -7.571545514718e+00       1.186671472680e-07       5.364092677239e-04      -1.893896859246e-06 
   75       1.988947382146e+03       3.965099839736e-01       1.816098888218e-03      -8.066550426302e+00       1.180068386530e-07       5.291448082885e-04      -1.883399597783e-06 
   76       2.014524448258e+03       4.107012268360e-01       1.864960959178e-03      -8.572596826376e+00       1.173316402898e-07       5.220194200497e-04      -1.873501965428e-06 
   77       2.040325142486e+03       4.250687856105e-01       1.914476096143e-03      -9.089416316411e+00       1.166460580779e-07       5.150461397720e-04      -1.864478552068e-06 
   78       2.066357754368e+03       4.396019616423e-01       1.964645385056e-03      -9.616721073271e+00       1.159578621401e-07       5.082455919614e-04      -1.856613502454e-06 
   79       2.092628490700e+03       4.542894969123e-01       2.015470019324e-03      -1.015420733378e+01       1.152728624403e-07       5.016302179380e-04      -1.850198710419e-06 
   80       2.119141348225e+03       4.691195660230e-01       2.066951303653e-03      -1.070155535625e+01       1.145945157506e-07       4.952033755513e-04      -1.845533141354e-06 
   81       2.145897986319e+03       4.840797681843e-01       2.119090657890e-03      -1.125842938208e+01       1.139235058750e-07       4.889584102568e-04      -1.842922119227e-06 
   82       2.172897599688e+03       4.991571191994e-01       2.171889620863e-03      -1.182447759722e+01       1.132572964391e-07       4.828776975542e-04      -1.842676578132e-06 
   83       2.200136791051e+03       5.143380434510e-01       2.225349854218e-03      -1.239933209381e+01       1.125896555538e-07       4.769316567869e-04      -1.845112278396e-06 
   84       2.227611701901e+03       5.296088566323e-01       2.279473118634e-03      -1.298261422341e+01       1.119136485711e-07       4.710897344106e-04      -1.850455465879e-06 
   85       2.255325089487e+03       5.449573234440e-01       2.334261189517e-03      -1.357395176097e+01       1.112329431639e-07       4.653588031914e-04      -1.858534574336e-06 
   86       2.283280195080e+03       5.603713446378e-01       2.389715934303e-03      -1.417296452901e+01       1.105532762338e-07       4.597524058441e-04      -1.869010714181e-06 
   87       2.311478502182e+03       5.758384894612e-01       2.445839342167e-03      -1.477925931028e+01       1.098790513059e-07       4.542791074070e-04      -1.881458956177e-06 
   88       2.339919647165e+03       5.913459958913e-01       2.502633527402e-03      -1.539242989989e+01       1.092130989278e-07       4.489419994432e-04      -1.895362431581e-06 
   89       2.368601329913e+03       6.068807708684e-01       2.560100732790e-03      -1.601205715751e+01       1.085564223275e-07       4.437381899227e-04      -1.910106285224e-06 
   90       2.397519224460e+03       6.224293905298e-01       2.618243332976e-03      -1.663770905952e+01       1.079079279864e-07       4.386582787838e-04      -1.924971481524e-06 
   91       2.426666889632e+03       6.379781004435e-01       2.677063837850e-03      -1.726894075114e+01       1.072641407793e-07       4.336858191752e-04      -1.939128463429e-06 
   92       2.456035679690e+03       6.535128158420e-01       2.736564895913e-03      -1.790529459865e+01       1.066189033390e-07       4.287967643778e-04      -1.951630664299e-06 
   93       2.485617365951e+03       6.690193394445e-01       2.796749353566e-03      -1.854630610610e+01       1.059659111554e-07       4.239679386414e-04      -1.961624005901e-06 
   94       2.515412646793e+03       6.844840518908e-01       2.857620435815e-03      -1.919152257008e+01       1.053079267630e-07       4.192059151141e-04      -1.969044590809e-06 
   95       2.545423758296e+03       6.998933260639e-01       2.919181599107e-03      -1.984048734011e+01       1.046497178094e-07       4.145235780342e-04      -1.974065553094e-06 
   96       2.575651825852e+03       7.152333219317e-01       2.981436481934e-03      -2.049273433499e+01       1.039953193462e-07       4.099314219950e-04      -1.976896515073e-06 
   97       2.606096812019e+03       7.304899897669e-01       3.044388908977e-03      -2.114778817547e+01       1.033479044926e-07       4.054373153949e-04      -1.977785645235e-06 
   98       2.636757464376e+03       7.456490733684e-01       3.108042895246e-03      -2.180516431687e+01       1.027096477549e-07       4.010462575287e-04      -1.977021759480e-06 
   99       2.667631263374e+03       7.606961132811e-01       3.172402650223e-03      -2.246436918180e+01       1.020815808431e-07       3.967601293207e-04      -1.974936465682e-06 
  100       2.698714370193e+03       7.756164500168e-01       3.237472582004e-03      -2.312490029281e+01       1.014634408283e-07       3.925774376993e-04      -1.971906351573e-06 
  101       2.730001574597e+03       7.903952272747e-01       3.303257301445e-03      -2.378624640502e+01       1.008535104820e-07       3.884930536136e-04      -1.968355215947e-06 
  102       2.761486242782e+03       8.050173951617e-01       3.369761626300e-03      -2.444788763886e+01       1.002484506412e-07       3.844979436915e-04      -1.964756343185e-06 
  103       2.793160265238e+03       8.194677134132e-01       3.436990585366e-03      -2.510929561266e+01       9.964312444129e-08       3.805788955392e-04      -1.961634821097e-06 
  104       2.825015756841e+03       8.337311331670e-01       3.504949277386e-03      -2.576993780882e+01       9.903250028924e-08       3.767231766379e-04      -1.959458612172e-06 
  105       2.857050531033e+03       8.477939940820e-01       3.573642417141e-03      -2.642929105808e+01       9.841836878871e-08       3.729342122463e-04      -1.958281282944e-06 
  106       2.889263271355e+03       8.616429956894e-01       3.643074735476e-03      -2.708683013258e+01       9.780407824687e-08       3.692185502889e-04      -1.958031495330e-06 
  107       2.921651812739e+03       8.752648405718e-01       3.713251121584e-03      -2.774202385207e+01       9.719253595119e-08       3.655810654876e-04      -1.958616780041e-06 
